# 1 Rayleigh ellipticity mode(s)
# 60062 2_reports/tar1_ln12_tr2.report
# Layered model 52546: value=1.12007
# Mode 0
0.205352502645715 -0.956773237012761
0.220673406908459 -0.981066258525714
0.237137370566166 -1.00871628086811
0.254829674797935 -1.04041948360173
0.273841963426436 -1.07707548224407
0.294272717620928 -1.11986555700365
0.316227766016838 -1.1703693208914
0.339820832894256 -1.23074336285717
0.365174127254838 -1.30400279357447
0.392418975848454 -1.39447893005301
0.421696503428583 -1.5085874510831
0.453158363760082 -1.65615640550927
0.486967525165863 -1.85276544369227
0.523299114681495 -2.12379703493845
0.562341325190349 -2.51053614499267
0.604296390238133 -3.07373262038719
0.649381631576212 -3.8676353968204
0.697830584859866 -4.82784113202128
0.749894209332456 -5.64283321205571
0.805842187761482 -5.88559863575218
0.865964323360066 -5.34726825489566
0.930572040929699 -4.20787839642131
1 -2.88824692066989
1.07460782832132 -1.80762194898585
1.15478198468946 -1.29718035307454
1.24093776075172 -1.19549191745785
1.33352143216332 -1.18661798763354
1.43301257023696 -1.19478828342947
1.53992652605949 -1.20610440089714
1.65481709994318 -1.21737726133017
1.77827941003892 -1.22792102434731
1.91095297497044 -1.23778137965999
2.05352502645714 -1.24716618058095
2.20673406908459 -1.25614796898653
2.37137370566165 -1.26449842989419
2.54829674797934 -1.27169753717841
2.73841963426436 -1.27710802557749
2.94272717620928 -1.28019843905967
3.16227766016838 -1.28070168513839
3.39820832894256 -1.27867531595541
3.65174127254837 -1.27447014432336
3.92418975848453 -1.2686095889743
4.21696503428582 -1.26159604791969
4.53158363760081 -1.25371838220497
4.86967525165863 -1.24497456243434
5.23299114681494 -1.23516364749945
5.62341325190348 -1.22408436634342
6.04296390238132 -1.21172979508912
6.4938163157621 -1.19840605038955
6.97830584859865 -1.18474577238813
7.49894209332455 -1.17159835830055
8.05842187761481 -1.15979524548327
8.65964323360064 -1.14985143853089
9.30572040929698 -1.14174288107605
9.99999999999998 -1.13488626740983
10.7460782832132 -1.12831120052437
11.5478198468946 -1.12089377026349
12.4093776075172 -1.11153425021108
13.3352143216332 -1.0992502010446
14.3301257023696 -1.08321606364025
15.3992652605949 -1.06279011820108
16.5481709994318 -1.03755693991221
17.7827941003892 -1.00739880058736
19.1095297497044 -0.972596928064755
# 1 Rayleigh ellipticity mode(s)
# Layered model 42854: value=1.14682
# Mode 0
0.205352502645715 -1.03737800260426
0.220673406908459 -1.07214092502151
0.237137370566166 -1.11221823536867
0.254829674797935 -1.15878933364437
0.273841963426436 -1.21340653126245
0.294272717620928 -1.27815448521089
0.316227766016838 -1.355897684683
0.339820832894256 -1.4506767390221
0.365174127254838 -1.56836512132952
0.392418975848454 -1.7177990890853
0.421696503428583 -1.91279974043252
0.453158363760082 -2.17593061286919
0.486967525165863 -2.5456682402423
0.523299114681495 -3.0899553780394
0.562341325190349 -3.9290401321029
0.604296390238133 -5.25936696453478
0.649381631576212 -7.3331225488248
0.697830584859866 -10.3143490663775
0.749894209332456 -13.8675402194948
0.805842187761482 -16.3035545247237
0.865964323360066 -15.0221584606796
0.930572040929699 -10.478190073925
1 -5.88921944021727
1.07460782832132 -2.81086545965848
1.15478198468946 -1.31670616170836
1.24093776075172 -1.01667611935893
1.33352143216332 -1.03069351690878
1.43301257023696 -1.08759260409451
1.53992652605949 -1.14817137910332
1.65481709994318 -1.2060666045151
1.77827941003892 -1.26034995453816
1.91095297497044 -1.31087607496491
2.05352502645714 -1.35726844305065
2.20673406908459 -1.39861690656137
2.37137370566165 -1.43332842796331
2.54829674797934 -1.45903474491749
2.73841963426436 -1.47259228626639
2.94272717620928 -1.47027906199497
3.16227766016838 -1.44834436995373
3.39820832894256 -1.40408311880178
3.65174127254837 -1.33752460826584
3.92418975848453 -1.25350097650707
4.21696503428582 -1.16303725825262
4.53158363760081 -1.08171377140972
4.86967525165863 -1.02302695694917
5.23299114681494 -0.990802530442183
5.62341325190348 -0.979447083738755
6.04296390238132 -0.980847930026792
6.4938163157621 -0.989044088218922
6.97830584859865 -1.00072678615152
7.49894209332455 -1.01426458834675
8.05842187761481 -1.02880079567774
8.65964323360064 -1.04368001529375
9.30572040929698 -1.05813641487933
9.99999999999998 -1.07118202248329
10.7460782832132 -1.08164568728244
11.5478198468946 -1.08829068935452
12.4093776075172 -1.08993453146147
13.3352143216332 -1.0855347684264
14.3301257023696 -1.07425601618468
15.3992652605949 -1.05555737946641
16.5481709994318 -1.02933294971676
17.7827941003892 -0.996113422523038
19.1095297497044 -0.957299285574973
# 1 Rayleigh ellipticity mode(s)
# Layered model 46246: value=1.16571
# Mode 0
0.205352502645715 -0.919283273572229
0.220673406908459 -0.941967981542124
0.237137370566166 -0.967872537656199
0.254829674797935 -0.997646320926622
0.273841963426436 -1.03212473744701
0.294272717620928 -1.07240169284898
0.316227766016838 -1.11993876634294
0.339820832894256 -1.17673446689838
0.365174127254838 -1.24559525198091
0.392418975848454 -1.33058551725488
0.421696503428583 -1.43780549173285
0.453158363760082 -1.57679594948047
0.486967525165863 -1.76318775215753
0.523299114681495 -2.02386250137348
0.562341325190349 -2.40681448510609
0.604296390238133 -2.99575826793697
0.649381631576212 -3.89939257190221
0.697830584859866 -5.078416815399
0.749894209332456 -6.05690388628647
0.805842187761482 -6.25224595486759
0.865964323360066 -5.55263910494948
0.930572040929699 -4.28198870082919
1 -2.88269394428872
1.07460782832132 -1.72183551519825
1.15478198468946 -1.13838175733997
1.24093776075172 -1.04592964251821
1.33352143216332 -1.06704371209282
1.43301257023696 -1.10730539150979
1.53992652605949 -1.15141345398734
1.65481709994318 -1.19618909672316
1.77827941003892 -1.24087330950456
1.91095297497044 -1.2852297868728
2.05352502645714 -1.32903069870024
2.20673406908459 -1.37184842965805
2.37137370566165 -1.41291108126801
2.54829674797934 -1.45095339088981
2.73841963426436 -1.48404261846303
2.94272717620928 -1.50938207197084
3.16227766016838 -1.5231219135855
3.39820832894256 -1.52025599324727
3.65174127254837 -1.49477851356843
3.92418975848453 -1.44044804217444
4.21696503428582 -1.35278460343045
4.53158363760081 -1.2332435145645
4.86967525165863 -1.09630278826825
5.23299114681494 -0.976590644111793
5.62341325190348 -0.919205332748758
6.04296390238132 -0.934339127432621
6.4938163157621 -0.982572886552627
6.97830584859865 -1.03121645257501
7.49894209332455 -1.07115175140914
8.05842187761481 -1.10187578656415
8.65964323360064 -1.12425872580685
9.30572040929698 -1.13897370601875
9.99999999999998 -1.14633633818285
10.7460782832132 -1.14641054415018
11.5478198468946 -1.13916078932646
12.4093776075172 -1.12461995747833
13.3352143216332 -1.1030689411528
14.3301257023696 -1.07521420289562
15.3992652605949 -1.04233138910651
16.5481709994318 -1.00632588829524
17.7827941003892 -0.969649025073945
19.1095297497044 -0.935007785355795
# 1 Rayleigh ellipticity mode(s)
# Layered model 48011: value=1.16689
# Mode 0
0.205352502645715 -0.977018590362769
0.220673406908459 -1.00638558531743
0.237137370566166 -1.0400843287102
0.254829674797935 -1.07904284313558
0.273841963426436 -1.1244747401655
0.294272717620928 -1.17799916692153
0.316227766016838 -1.24182644337891
0.339820832894256 -1.31905487829759
0.365174127254838 -1.41416322506093
0.392418975848454 -1.53386274836583
0.421696503428583 -1.68864287281266
0.453158363760082 -1.89572439900669
0.486967525165863 -2.18500840624261
0.523299114681495 -2.61155682121076
0.562341325190349 -3.28133526743886
0.604296390238133 -4.39191617298428
0.649381631576212 -6.21249245973941
0.697830584859866 -8.72001010872536
0.749894209332456 -10.9245212511777
0.805842187761482 -11.1224071068604
0.865964323360066 -8.89069502350544
0.930572040929699 -5.78207029664103
1 -3.22022298452733
1.07460782832132 -1.68163456321752
1.15478198468946 -1.23101106166519
1.24093776075172 -1.1841582972663
1.33352143216332 -1.1972120683249
1.43301257023696 -1.22218701475547
1.53992652605949 -1.25003031811742
1.65481709994318 -1.27810369072648
1.77827941003892 -1.30522999174578
1.91095297497044 -1.3305518405217
2.05352502645714 -1.35317767231089
2.20673406908459 -1.3720463334634
2.37137370566165 -1.38587897899313
2.54829674797934 -1.39319523808846
2.73841963426436 -1.39240644055266
2.94272717620928 -1.38200839310802
3.16227766016838 -1.36088167676367
3.39820832894256 -1.32866546523987
3.65174127254837 -1.28611615581868
3.92418975848453 -1.23532705370803
4.21696503428582 -1.17968210173084
4.53158363760081 -1.12342556119281
4.86967525165863 -1.07078603637355
5.23299114681494 -1.02483633973846
5.62341325190348 -0.986673949541644
6.04296390238132 -0.955540520394631
6.4938163157621 -0.929789680683336
6.97830584859865 -0.907953923065073
7.49894209332455 -0.889361902041268
8.05842187761481 -0.874297592452541
8.65964323360064 -0.863884108327933
9.30572040929698 -0.859762805857334
9.99999999999998 -0.863516668783241
10.7460782832132 -0.875873071701205
11.5478198468946 -0.89607890163819
12.4093776075172 -0.922030218206327
13.3352143216332 -0.95114166114321
14.3301257023696 -0.981206563012482
15.3992652605949 -1.01072172436435
16.5481709994318 -1.03878780279995
17.7827941003892 -1.06488127563386
19.1095297497044 -1.08865528559132
# 1 Rayleigh ellipticity mode(s)
# Layered model 57376: value=1.16922
# Mode 0
0.205352502645715 -1.0545130316408
0.220673406908459 -1.08845087703035
0.237137370566166 -1.12735270477311
0.254829674797935 -1.17225971795614
0.273841963426436 -1.22452339170718
0.294272717620928 -1.28593098128769
0.316227766016838 -1.35889715886539
0.339820832894256 -1.44676591072215
0.365174127254838 -1.55430347032666
0.392418975848454 -1.68853712951903
0.421696503428583 -1.86025292068878
0.453158363760082 -2.08682474824958
0.486967525165863 -2.39792634473681
0.523299114681495 -2.84801154269462
0.562341325190349 -3.54627909590878
0.604296390238133 -4.73735521553713
0.649381631576212 -7.05428837358637
0.697830584859866 -12.5462451573241
0.749894209332456 -32.1128097357707
0.805842187761482 1573.14168849118
0.865964323360066 67.4517123653557
0.930572040929699 104.471496596533
1 -45.7151620544262
1.07460782832132 -10.1090899683384
1.15478198468946 -3.58237794921008
1.24093776075172 -1.50311380161095
1.33352143216332 -1.05882677163001
1.43301257023696 -1.01884306226327
1.53992652605949 -1.04839135265006
1.65481709994318 -1.09109267121866
1.77827941003892 -1.13490186405525
1.91095297497044 -1.17692411151807
2.05352502645714 -1.21638794221331
2.20673406908459 -1.2529101483396
2.37137370566165 -1.28598583567143
2.54829674797934 -1.31479723318048
2.73841963426436 -1.33811871708951
2.94272717620928 -1.35427414168229
3.16227766016838 -1.36116390086245
3.39820832894256 -1.35640972066707
3.65174127254837 -1.33768386957694
3.92418975848453 -1.30329655535363
4.21696503428582 -1.25309591811183
4.53158363760081 -1.18963703785634
4.86967525165863 -1.11927388603056
5.23299114681494 -1.05217125811824
5.62341325190348 -0.999618192636673
6.04296390238132 -0.96856241893675
6.4938163157621 -0.957952049094841
6.97830584859865 -0.961329321938095
7.49894209332455 -0.971981894196927
8.05842187761481 -0.985388575274503
8.65964323360064 -0.999096943743565
9.30572040929698 -1.01194748376572
9.99999999999998 -1.02347463860076
10.7460782832132 -1.03355861110948
11.5478198468946 -1.04223074781792
12.4093776075172 -1.04955102171685
13.3352143216332 -1.05551524970611
14.3301257023696 -1.05998316336566
15.3992652605949 -1.06264198862302
16.5481709994318 -1.06302363620299
17.7827941003892 -1.06057239970835
19.1095297497044 -1.05473417894442
# 1 Rayleigh ellipticity mode(s)
# Layered model 59564: value=1.19353
# Mode 0
0.205352502645715 -0.938520824045589
0.220673406908459 -0.967679848169523
0.237137370566166 -1.0013140170554
0.254829674797935 -1.04042153615925
0.273841963426436 -1.08632055034926
0.294272717620928 -1.14078969445638
0.316227766016838 -1.20628979379808
0.339820832894256 -1.28632665741916
0.365174127254838 -1.38607066017324
0.392418975848454 -1.51346924603123
0.421696503428583 -1.68136665684348
0.453158363760082 -1.91183930477051
0.486967525165863 -2.24584703530084
0.523299114681495 -2.76698310682242
0.562341325190349 -3.66692070360229
0.604296390238133 -5.44828212173111
0.649381631576212 -9.66777965114109
0.697830584859866 -23.761975599666
0.749894209332456 2357.65926723978
0.805842187761482 34.2063904007583
0.865964323360066 21.3115298105354
0.930572040929699 19.5390656383084
1 33.191701285753
1.07460782832132 -15.10121361911
1.15478198468946 -1.60748663549032
1.24093776075172 -1.06593239471045
1.33352143216332 -1.11208309625479
1.43301257023696 -1.15888588026072
1.53992652605949 -1.20152657263714
1.65481709994318 -1.24083789905394
1.77827941003892 -1.27738792051218
1.91095297497044 -1.3112626104058
2.05352502645714 -1.3421286286693
2.20673406908459 -1.36929243762916
2.37137370566165 -1.39176078950607
2.54829674797934 -1.408334520717
2.73841963426436 -1.41777561247318
2.94272717620928 -1.41909029229801
3.16227766016838 -1.41194527753599
3.39820832894256 -1.3971341437465
3.65174127254837 -1.37681413357668
3.92418975848453 -1.35409033434332
4.21696503428582 -1.33183016728631
4.53158363760081 -1.31139913388777
4.86967525165863 -1.29229001280016
5.23299114681494 -1.27271050586112
5.62341325190348 -1.25039350414283
6.04296390238132 -1.22313611470384
6.4938163157621 -1.18908700970745
6.97830584859865 -1.14696811834979
7.49894209332455 -1.09636354562586
8.05842187761481 -1.03813357110404
8.65964323360064 -0.974945101155366
9.30572040929698 -0.911787419469028
9.99999999999998 -0.856050521275382
10.7460782832132 -0.816260737678211
11.5478198468946 -0.798636502955399
12.4093776075172 -0.803084769116298
13.3352143216332 -0.823246370233074
14.3301257023696 -0.851126708410816
15.3992652605949 -0.880853474447568
16.5481709994318 -0.909168916571243
17.7827941003892 -0.934494976840203
19.1095297497044 -0.95607486349072
# 1 Rayleigh ellipticity mode(s)
# Layered model 57243: value=1.19848
# Mode 0
0.205352502645715 -1.00920906406228
0.220673406908459 -1.03981006331554
0.237137370566166 -1.07467883520001
0.254829674797935 -1.11467411842645
0.273841963426436 -1.16090258467283
0.294272717620928 -1.21481633779319
0.316227766016838 -1.27836020373069
0.339820832894256 -1.35420077225663
0.365174127254838 -1.44609435374434
0.392418975848454 -1.55950015091573
0.421696503428583 -1.70264476271482
0.453158363760082 -1.8884551489902
0.486967525165863 -2.13823701319965
0.523299114681495 -2.48897447380907
0.562341325190349 -3.0080435621008
0.604296390238133 -3.82049004830247
0.649381631576212 -5.13754274209392
0.697830584859866 -7.16919892352037
0.749894209332456 -9.63897754254927
0.805842187761482 -11.1955440736693
0.865964323360066 -10.3882206846466
0.930572040929699 -7.72992442621066
1 -4.88022378945242
1.07460782832132 -2.75064352202763
1.15478198468946 -1.56020812353039
1.24093776075172 -1.21671903565152
1.33352143216332 -1.17726784703692
1.43301257023696 -1.19492565032691
1.53992652605949 -1.22438184648788
1.65481709994318 -1.25570359056827
1.77827941003892 -1.28592441671638
1.91095297497044 -1.31381544835119
2.05352502645714 -1.3385915470043
2.20673406908459 -1.35951313246543
2.37137370566165 -1.37575289322523
2.54829674797934 -1.38637291368747
2.73841963426436 -1.39037660771118
2.94272717620928 -1.3868307226243
3.16227766016838 -1.37505360793987
3.39820832894256 -1.35485477482502
3.65174127254837 -1.32679510364313
3.92418975848453 -1.29241618645828
4.21696503428582 -1.25435487142628
4.53158363760081 -1.21621381176063
4.86967525165863 -1.18202913623746
5.23299114681494 -1.15526655273405
5.62341325190348 -1.13763464460724
6.04296390238132 -1.12846324290219
6.4938163157621 -1.12521592938989
6.97830584859865 -1.12471204910016
7.49894209332455 -1.1241090841139
8.05842187761481 -1.12124875453069
8.65964323360064 -1.11458547125761
9.30572040929698 -1.1030009544066
9.99999999999998 -1.08565809584548
10.7460782832132 -1.06193633199423
11.5478198468946 -1.03145158421791
12.4093776075172 -0.994154753906285
13.3352143216332 -0.95049487046245
14.3301257023696 -0.901615500977743
15.3992652605949 -0.849524302484524
16.5481709994318 -0.797138346616131
17.7827941003892 -0.748076409421524
19.1095297497044 -0.706091185982362
# 1 Rayleigh ellipticity mode(s)
# Layered model 52314: value=1.23589
# Mode 0
0.205352502645715 -1.11039347797392
0.220673406908459 -1.15288971411734
0.237137370566166 -1.20195145058933
0.254829674797935 -1.25905403468735
0.273841963426436 -1.32614045468332
0.294272717620928 -1.40581773757266
0.316227766016838 -1.50165662559929
0.339820832894256 -1.61865899134079
0.365174127254838 -1.7640017626812
0.392418975848454 -1.94823838040234
0.421696503428583 -2.18724056916139
0.453158363760082 -2.50523563051546
0.486967525165863 -2.93901838082521
0.523299114681495 -3.54165535962692
0.562341325190349 -4.37819276519075
0.604296390238133 -5.49501093666325
0.649381631576212 -6.84012974770459
0.697830584859866 -8.14180243835239
0.749894209332456 -8.85890132600113
0.805842187761482 -8.4586057500763
0.865964323360066 -6.95659144065414
0.930572040929699 -4.96136010552351
1 -3.11735921327045
1.07460782832132 -1.79802392480949
1.15478198468946 -1.18334694069991
1.24093776075172 -1.06751943061679
1.33352143216332 -1.09579436226963
1.43301257023696 -1.14657505068833
1.53992652605949 -1.19666336832608
1.65481709994318 -1.24203470879122
1.77827941003892 -1.2818639085715
1.91095297497044 -1.31560134980154
2.05352502645714 -1.3424036630274
2.20673406908459 -1.36107215941803
2.37137370566165 -1.37018645051064
2.54829674797934 -1.36842340889862
2.73841963426436 -1.3551033574585
2.94272717620928 -1.3309334977995
3.16227766016838 -1.29869213319947
3.39820832894256 -1.26324155313551
3.65174127254837 -1.23015476107319
3.92418975848453 -1.20318557276197
4.21696503428582 -1.18249287593284
4.53158363760081 -1.16524337755763
4.86967525165863 -1.14758823071879
5.23299114681494 -1.12612443562953
5.62341325190348 -1.09840088214657
6.04296390238132 -1.06298660700861
6.4938163157621 -1.0195515499631
6.97830584859865 -0.969140583882573
7.49894209332455 -0.914651788777911
8.05842187761481 -0.861347372291111
8.65964323360064 -0.816820070043507
9.30572040929698 -0.789228620230119
9.99999999999998 -0.783154466176885
10.7460782832132 -0.796180166557464
11.5478198468946 -0.821004197026596
12.4093776075172 -0.850630008396159
13.3352143216332 -0.880786067160455
14.3301257023696 -0.909448723856335
15.3992652605949 -0.935781245385798
16.5481709994318 -0.959429128571188
17.7827941003892 -0.980166004591577
19.1095297497044 -0.997732838721393
# 1 Rayleigh ellipticity mode(s)
# Layered model 53868: value=1.23711
# Mode 0
0.205352502645715 -0.957998263470482
0.220673406908459 -0.98432099353909
0.237137370566166 -1.01395225761785
0.254829674797935 -1.04758913011924
0.273841963426436 -1.08615031045358
0.294272717620928 -1.13086851622431
0.316227766016838 -1.18343171617432
0.339820832894256 -1.24620583798853
0.365174127254838 -1.3225988375244
0.392418975848454 -1.41768132550286
0.421696503428583 -1.53929758407504
0.453158363760082 -1.70017164967026
0.486967525165863 -1.92217574129515
0.523299114681495 -2.24567222469376
0.562341325190349 -2.75174836090217
0.604296390238133 -3.61945466608061
0.649381631576212 -5.28022799405249
0.697830584859866 -8.85800814560176
0.749894209332456 -18.062673772918
0.805842187761482 -60.6672220523538
0.865964323360066 129.639454513745
0.930572040929699 54.2799830246869
1 93.609243562438
1.07460782832132 -26.3637109471229
1.15478198468946 -3.88950105154478
1.24093776075172 -0.870292121542749
1.33352143216332 -0.873025883614952
1.43301257023696 -0.933648287830315
1.53992652605949 -0.988865953766097
1.65481709994318 -1.03882513894412
1.77827941003892 -1.08516527741227
1.91095297497044 -1.12904381958195
2.05352502645714 -1.17115306242157
2.20673406908459 -1.21179752177567
2.37137370566165 -1.25090920176259
2.54829674797934 -1.28800804104012
