# 1 Rayleigh ellipticity mode(s)
# 60807 2_reports/tar1_ln5_tr2.report
# Layered model 59904: value=0.996729
# Mode 0
0.205352502645715 -0.988727089045603
0.220673406908459 -1.01591445710234
0.237137370566166 -1.04713048903233
0.254829674797935 -1.08322578461441
0.273841963426436 -1.12530490047455
0.294272717620928 -1.17482885746226
0.316227766016838 -1.2337711403629
0.339820832894256 -1.30486208261578
0.365174127254838 -1.39198422145755
0.392418975848454 -1.50083487516614
0.421696503428583 -1.6400792917953
0.453158363760082 -1.8234347109209
0.486967525165863 -2.07355300931947
0.523299114681495 -2.42926809638782
0.562341325190349 -2.95788750338853
0.604296390238133 -3.76710785934813
0.649381631576212 -4.97479113112129
0.697830584859866 -6.55200011234312
0.749894209332456 -8.11290552432629
0.805842187761482 -8.92494666749028
0.865964323360066 -8.33280150376103
0.930572040929699 -6.46631536490809
1 -4.20916501949638
1.07460782832132 -2.35904036829744
1.15478198468946 -1.30594906079198
1.24093776075172 -0.981080821770595
1.33352143216332 -0.913328254303625
1.43301257023696 -0.909786124377705
1.53992652605949 -0.929593523569026
1.65481709994318 -0.961296053105718
1.77827941003892 -0.99992476002074
1.91095297497044 -1.0425476548928
2.05352502645714 -1.0872834630831
2.20673406908459 -1.13294288096322
2.37137370566165 -1.17872124848886
2.54829674797934 -1.22388489193152
2.73841963426436 -1.26745996352996
2.94272717620928 -1.3079124524765
3.16227766016838 -1.34281210110277
3.39820832894256 -1.36852299851014
3.65174127254837 -1.3800620420118
3.92418975848453 -1.37139135275895
4.21696503428582 -1.33649256107323
4.53158363760081 -1.27152144111068
4.86967525165863 -1.17811735359193
5.23299114681494 -1.06736949668136
5.62341325190348 -0.961897993861216
6.04296390238132 -0.888571824124868
6.4938163157621 -0.858455062452171
6.97830584859865 -0.859825601247753
7.49894209332455 -0.876370678334635
8.05842187761481 -0.898509435085143
8.65964323360064 -0.922084094368034
9.30572040929698 -0.945462656228539
9.99999999999998 -0.968022854302978
10.7460782832132 -0.989517082783888
11.5478198468946 -1.00980907714621
12.4093776075172 -1.02875468468665
13.3352143216332 -1.04613733644836
14.3301257023696 -1.06162396489278
15.3992652605949 -1.07472945880954
16.5481709994318 -1.08478809629674
17.7827941003892 -1.09093619356807
19.1095297497044 -1.09211378797549
# 1 Rayleigh ellipticity mode(s)
# Layered model 59660: value=1.03497
# Mode 0
0.205352502645715 -0.928198591381752
0.220673406908459 -0.955099155433889
0.237137370566166 -0.986053073586894
0.254829674797935 -1.02194147563889
0.273841963426436 -1.06391988857123
0.294272717620928 -1.11353526474296
0.316227766016838 -1.17290852868301
0.339820832894256 -1.24502945902443
0.365174127254838 -1.33425269609493
0.392418975848454 -1.44717234744827
0.421696503428583 -1.59425204220979
0.453158363760082 -1.79306829247988
0.486967525165863 -2.07527963296114
0.523299114681495 -2.50297737074886
0.562341325190349 -3.21068866294724
0.604296390238133 -4.52011647185804
0.649381631576212 -7.2446471645061
0.697830584859866 -13.5550809654171
0.749894209332456 -32.4065242790284
0.805842187761482 -278.192694392923
0.865964323360066 85.2332837854815
0.930572040929699 73.8267688846087
1 -101.437531674406
1.07460782832132 -8.75313276394811
1.15478198468946 -1.14952247242383
1.24093776075172 -0.810777450051998
1.33352143216332 -0.862921010139651
1.43301257023696 -0.913688255031289
1.53992652605949 -0.960135533818753
1.65481709994318 -1.00365567223589
1.77827941003892 -1.04532488812475
1.91095297497044 -1.08581465979596
2.05352502645714 -1.12545887931219
2.20673406908459 -1.1642499146813
2.37137370566165 -1.20175646419256
2.54829674797934 -1.23696901931464
2.73841963426436 -1.26809429889985
2.94272717620928 -1.29236731954669
3.16227766016838 -1.3060324263992
3.39820832894256 -1.30472263203918
3.65174127254837 -1.28444385154138
3.92418975848453 -1.24316946013308
4.21696503428582 -1.18272787812726
4.53158363760081 -1.11032353749112
4.86967525165863 -1.03848797820792
5.23299114681494 -0.981485798642753
5.62341325190348 -0.948009890199387
6.04296390238132 -0.936850422496245
6.4938163157621 -0.941075170866327
6.97830584859865 -0.954089447118069
7.49894209332455 -0.971669075548073
8.05842187761481 -0.991491851321916
8.65964323360064 -1.01233729177095
9.30572040929698 -1.03355160745048
9.99999999999998 -1.05474882813384
10.7460782832132 -1.07564509102644
11.5478198468946 -1.09595832709417
12.4093776075172 -1.1153377524948
13.3352143216332 -1.13330655954131
14.3301257023696 -1.14921223752534
15.3992652605949 -1.16218606016194
16.5481709994318 -1.1711180930744
17.7827941003892 -1.17465708664783
19.1095297497044 -1.17124658459631
# 1 Rayleigh ellipticity mode(s)
# Layered model 58493: value=1.04499
# Mode 0
0.205352502645715 -0.984566359708585
0.220673406908459 -1.01164649849711
0.237137370566166 -1.04268811914792
0.254829674797935 -1.07851537340286
0.273841963426436 -1.12019441924741
0.294272717620928 -1.16912920160931
0.316227766016838 -1.22720601443378
0.339820832894256 -1.29701769049741
0.365174127254838 -1.38222175788173
0.392418975848454 -1.48813118622593
0.421696503428583 -1.62272147517691
0.453158363760082 -1.79840128024486
0.486967525165863 -2.0351887411542
0.523299114681495 -2.36633067686723
0.562341325190349 -2.84709514798589
0.604296390238133 -3.56191899469796
0.649381631576212 -4.60205589056607
0.697830584859866 -5.95899194513068
0.749894209332456 -7.35616086095623
0.805842187761482 -8.18428335107543
0.865964323360066 -7.78115017470907
0.930572040929699 -6.12331656696657
1 -4.00428757677129
1.07460782832132 -2.2614229099041
1.15478198468946 -1.3196393783825
1.24093776075172 -1.03452133079107
1.33352143216332 -0.960426521850802
1.43301257023696 -0.939447535948373
1.53992652605949 -0.938735406630601
1.65481709994318 -0.950665138862497
1.77827941003892 -0.973187474919155
1.91095297497044 -1.00501657399668
2.05352502645714 -1.04417492591267
2.20673406908459 -1.08801906240856
2.37137370566165 -1.13389206003264
2.54829674797934 -1.17954303493338
2.73841963426436 -1.22302534462127
2.94272717620928 -1.262291735464
3.16227766016838 -1.29473478944716
3.39820832894256 -1.31681996549053
3.65174127254837 -1.3239755269668
3.92418975848453 -1.3110182608298
4.21696503428582 -1.27345462172536
4.53158363760081 -1.20980968243428
4.86967525165863 -1.12462133049363
5.23299114681494 -1.03084380820198
5.62341325190348 -0.948550117087908
6.04296390238132 -0.895491998656935
6.4938163157621 -0.874682277802579
6.97830584859865 -0.876312443109617
7.49894209332455 -0.889693638548696
8.05842187761481 -0.908351128422394
8.65964323360064 -0.929120931907528
9.30572040929698 -0.950564163297216
9.99999999999998 -0.972039934593907
10.7460782832132 -0.99326009353556
11.5478198468946 -1.01407909768869
12.4093776075172 -1.0343878142765
13.3352143216332 -1.05405147573362
14.3301257023696 -1.0728653156754
15.3992652605949 -1.09051650012463
16.5481709994318 -1.1065483690688
17.7827941003892 -1.12032716529627
19.1095297497044 -1.13101400762434
# 1 Rayleigh ellipticity mode(s)
# Layered model 58382: value=1.04752
# Mode 0
0.205352502645715 -0.982314027997742
0.220673406908459 -1.00965635606808
0.237137370566166 -1.04099452386058
0.254829674797935 -1.07716144084248
0.273841963426436 -1.11923537482728
0.294272717620928 -1.16863729498192
0.316227766016838 -1.22727780990845
0.339820832894256 -1.29778494702233
0.365174127254838 -1.38386752467256
0.392418975848454 -1.4909124933455
0.421696503428583 -1.62699596118409
0.453158363760082 -1.80463358262594
0.486967525165863 -2.04381315005761
0.523299114681495 -2.37689794272015
0.562341325190349 -2.85415212882473
0.604296390238133 -3.53764361875623
0.649381631576212 -4.44234114101325
0.697830584859866 -5.40943266166795
0.749894209332456 -6.09102515589515
0.805842187761482 -6.15793997033221
0.865964323360066 -5.51503439584665
0.930572040929699 -4.3601323771305
1 -3.05055265338068
1.07460782832132 -1.91995850875265
1.15478198468946 -1.21502362625515
1.24093776075172 -0.954971661848245
1.33352143216332 -0.899762881104845
1.43301257023696 -0.909422027527739
1.53992652605949 -0.941710874665374
1.65481709994318 -0.982721052774641
1.77827941003892 -1.02705623133847
1.91095297497044 -1.07251294411255
2.05352502645714 -1.11821319023355
2.20673406908459 -1.1637727262866
2.37137370566165 -1.20885404701764
2.54829674797934 -1.25285795828315
2.73841963426436 -1.29463770172461
2.94272717620928 -1.33218719338184
3.16227766016838 -1.36232165888232
3.39820832894256 -1.38046462771722
3.65174127254837 -1.38077697175296
3.92418975848453 -1.35695505277972
4.21696503428582 -1.303999876432
4.53158363760081 -1.22107952145425
4.86967525165863 -1.1152324556525
5.23299114681494 -1.00450128186245
5.62341325190348 -0.915393708156748
6.04296390238132 -0.86726426609186
6.4938163157621 -0.856614039535245
6.97830584859865 -0.867347813963814
7.49894209332455 -0.887235609990939
8.05842187761481 -0.910348291888459
8.65964323360064 -0.934236371214759
9.30572040929698 -0.957947011517365
9.99999999999998 -0.981126046093741
10.7460782832132 -1.00364100067185
11.5478198468946 -1.02541518321408
12.4093776075172 -1.0463437301275
13.3352143216332 -1.0662399516686
14.3301257023696 -1.08479141637204
15.3992652605949 -1.10151864455124
16.5481709994318 -1.1157362301769
17.7827941003892 -1.12652062014246
19.1095297497044 -1.13269185223901
# 1 Rayleigh ellipticity mode(s)
# Layered model 56813: value=1.04964
# Mode 0
0.205352502645715 -0.977174214437146
0.220673406908459 -1.00311361175187
0.237137370566166 -1.03277142782914
0.254829674797935 -1.06690114045331
0.273841963426436 -1.10647121995925
0.294272717620928 -1.15274786021358
0.316227766016838 -1.20741877998334
0.339820832894256 -1.27278352868829
0.365174127254838 -1.35205487297759
0.392418975848454 -1.44985204176324
0.421696503428583 -1.57303720045251
0.453158363760082 -1.73218734397091
0.486967525165863 -1.94427428177129
0.523299114681495 -2.23764274559423
0.562341325190349 -2.66100589065894
0.604296390238133 -3.29681815970578
0.649381631576212 -4.26499344712759
0.697830584859866 -5.65641622115857
0.749894209332456 -7.33377511314421
0.805842187761482 -8.73976898436942
0.865964323360066 -9.0180775568023
0.930572040929699 -7.72290550763196
1 -5.45959936510917
1.07460782832132 -3.25652638808409
1.15478198468946 -1.73400925611014
1.24093776075172 -1.10293630167513
1.33352143216332 -0.962861487705319
1.43301257023696 -0.940657975383392
1.53992652605949 -0.952351502072742
1.65481709994318 -0.978814656385244
1.77827941003892 -1.01312163672128
1.91095297497044 -1.05164257417097
2.05352502645714 -1.09216225377383
2.20673406908459 -1.13327781340731
2.37137370566165 -1.17401045238868
2.54829674797934 -1.21346778890082
2.73841963426436 -1.25054006386628
2.94272717620928 -1.28361858135056
3.16227766016838 -1.31034135575573
3.39820832894256 -1.32742361379446
3.65174127254837 -1.33071047527745
3.92418975848453 -1.31565720245743
4.21696503428582 -1.2784325180091
4.53158363760081 -1.21771331229523
4.86967525165863 -1.13701065994688
5.23299114681494 -1.04688051436705
5.62341325190348 -0.964871322473974
6.04296390238132 -0.908827324754006
6.4938163157621 -0.884663591718955
6.97830584859865 -0.88431375892913
7.49894209332455 -0.896715652062314
8.05842187761481 -0.914660934604534
8.65964323360064 -0.93456378103336
9.30572040929698 -0.954792790503
9.99999999999998 -0.974609297239811
10.7460782832132 -0.993651935266418
11.5478198468946 -1.01169570058477
12.4093776075172 -1.02853196154812
13.3352143216332 -1.04390004784464
14.3301257023696 -1.05744146134208
15.3992652605949 -1.06866663818981
16.5481709994318 -1.07693394534921
17.7827941003892 -1.08144606809715
19.1095297497044 -1.08127151540807
# 1 Rayleigh ellipticity mode(s)
# Layered model 55171: value=1.05056
# Mode 0
0.205352502645715 -0.933446343499382
0.220673406908459 -0.958846429078474
0.237137370566166 -0.98791633366164
0.254829674797935 -1.02141296190247
0.273841963426436 -1.06031479885079
0.294272717620928 -1.10590975367983
0.316227766016838 -1.1599280135569
0.339820832894256 -1.22474869257175
0.365174127254838 -1.30373139835148
0.392418975848454 -1.40176656490005
0.421696503428583 -1.52622227729831
0.453158363760082 -1.68863154056269
0.486967525165863 -1.90778004832306
0.523299114681495 -2.21532856234398
0.562341325190349 -2.66492278813574
0.604296390238133 -3.33911786951286
0.649381631576212 -4.31559358945992
0.697830584859866 -5.51698640242329
0.749894209332456 -6.55829013591675
0.805842187761482 -6.90933463707037
0.865964323360066 -6.28182243009218
0.930572040929699 -4.88449153894695
1 -3.25844393446551
1.07460782832132 -1.90639088420567
1.15478198468946 -1.16654376139854
1.24093776075172 -0.958721092946889
1.33352143216332 -0.923079000540401
1.43301257023696 -0.932149692391951
1.53992652605949 -0.957814759025738
1.65481709994318 -0.991897368967263
1.77827941003892 -1.03090070389823
1.91095297497044 -1.07276558832747
2.05352502645714 -1.11605738206345
2.20673406908459 -1.1596610363426
2.37137370566165 -1.20252802711952
2.54829674797934 -1.24338424634896
2.73841963426436 -1.28039915384714
2.94272717620928 -1.3108554772457
3.16227766016838 -1.33093690251097
3.39820832894256 -1.33588112710248
3.65174127254837 -1.32083018085804
3.92418975848453 -1.28255148118928
4.21696503428582 -1.22173294200323
4.53158363760081 -1.145029967364
4.86967525165863 -1.065539504085
5.23299114681494 -0.999545643640043
5.62341325190348 -0.958478767623414
6.04296390238132 -0.942594038491683
6.4938163157621 -0.944560673224469
6.97830584859865 -0.95679997099618
7.49894209332455 -0.974371183589777
8.05842187761481 -0.994565368554414
8.65964323360064 -1.01597155919981
9.30572040929698 -1.03784400026314
9.99999999999998 -1.05975357014345
10.7460782832132 -1.08139950426075
11.5478198468946 -1.10249964112009
12.4093776075172 -1.12271651078753
13.3352143216332 -1.14159888065524
14.3301257023696 -1.15853050640187
15.3992652605949 -1.17268504516833
16.5481709994318 -1.18299081423478
17.7827941003892 -1.18811229047074
19.1095297497044 -1.18645782184237
# 1 Rayleigh ellipticity mode(s)
# Layered model 56773: value=1.05317
# Mode 0
0.205352502645715 -0.967506333804618
0.220673406908459 -0.993907161843679
0.237137370566166 -1.02417705716781
0.254829674797935 -1.05912367040996
0.273841963426436 -1.09979324211574
0.294272717620928 -1.14756589579807
0.316227766016838 -1.20430008217393
0.339820832894256 -1.27255780009356
0.365174127254838 -1.35596690853674
0.392418975848454 -1.45982422294376
0.421696503428583 -1.59213653621014
0.453158363760082 -1.76548345828825
0.486967525165863 -2.0004485862819
0.523299114681495 -2.33195698767285
0.562341325190349 -2.8200576132904
0.604296390238133 -3.56179868593457
0.649381631576212 -4.67476105947166
0.697830584859866 -6.18063355741652
0.749894209332456 -7.79096773891107
0.805842187761482 -8.78125267764376
0.865964323360066 -8.3057540018729
0.930572040929699 -6.34581003164742
1 -3.93579291700733
1.07460782832132 -2.07094208047134
1.15478198468946 -1.21293616511211
1.24093776075172 -1.02912887364477
1.33352143216332 -0.993948973009492
1.43301257023696 -0.988115313653272
1.53992652605949 -0.991768860408793
1.65481709994318 -1.00119438280763
1.77827941003892 -1.01632429642097
1.91095297497044 -1.03790401004142
2.05352502645714 -1.06630586871332
2.20673406908459 -1.10084803778515
2.37137370566165 -1.13970244145406
2.54829674797934 -1.18037131985246
2.73841963426436 -1.22023749476341
2.94272717620928 -1.25674930411749
3.16227766016838 -1.28724940774618
3.39820832894256 -1.30868078090004
3.65174127254837 -1.317384560961
3.92418975848453 -1.30918320751402
4.21696503428582 -1.27998552521275
4.53158363760081 -1.22718073785887
4.86967525165863 -1.15197599807164
5.23299114681494 -1.06236022278263
5.62341325190348 -0.974929460051462
6.04296390238132 -0.910719119328691
6.4938163157621 -0.881635405424297
6.97830584859865 -0.881870672227211
7.49894209332455 -0.898311258390953
8.05842187761481 -0.921596941002567
8.65964323360064 -0.94714635684328
9.30572040929698 -0.973013075823932
9.99999999999998 -0.998402871597275
10.7460782832132 -1.02297357682429
11.5478198468946 -1.04652344852654
12.4093776075172 -1.06884109951175
13.3352143216332 -1.0896180519516
14.3301257023696 -1.1083838080075
15.3992652605949 -1.12444944677331
16.5481709994318 -1.13685930351158
17.7827941003892 -1.14435920132582
19.1095297497044 -1.14539633018502
# 1 Rayleigh ellipticity mode(s)
# Layered model 46107: value=1.05479
# Mode 0
0.205352502645715 -0.95031370205934
0.220673406908459 -0.977714569771364
0.237137370566166 -1.00920515738824
0.254829674797935 -1.04566164655758
0.273841963426436 -1.08822777117093
0.294272717620928 -1.13842617626145
0.316227766016838 -1.19833031162361
0.339820832894256 -1.27083860284223
0.365174127254838 -1.3601284753242
0.392418975848454 -1.4724414200039
0.421696503428583 -1.61751001758449
0.453158363760082 -1.81130588816103
0.486967525165863 -2.08169090146025
0.523299114681495 -2.48090510991922
0.562341325190349 -3.11514856994049
0.604296390238133 -4.21784891096824
0.649381631576212 -6.33122993923729
0.697830584859866 -10.8219136788982
0.749894209332456 -22.6309371167537
0.805842187761482 -95.2425449920463
0.865964323360066 85.1677139953303
0.930572040929699 45.1999307967672
1 75.7651347349382
1.07460782832132 -20.9646152971811
1.15478198468946 -2.38454095717893
1.24093776075172 -0.788803419197545
1.33352143216332 -0.820793734025054
1.43301257023696 -0.873555675261511
1.53992652605949 -0.924308037899418
1.65481709994318 -0.972809753005931
1.77827941003892 -1.01973811787078
1.91095297497044 -1.06558830823864
2.05352502645714 -1.11062041327106
2.20673406908459 -1.1548342541068
2.37137370566165 -1.19787734589408
2.54829674797934 -1.23887270348008
2.73841963426436 -1.27616729964906
2.94272717620928 -1.30703671763515
3.16227766016838 -1.32746723408021
3.39820832894256 -1.33227144677613
3.65174127254837 -1.31589342952582
3.92418975848453 -1.27415887464944
4.21696503428582 -1.20685098364506
4.53158363760081 -1.12047829752287
4.86967525165863 -1.02980549035043
5.23299114681494 -0.95487123558713
5.62341325190348 -0.910258859622198
6.04296390238132 -0.895294777306213
6.4938163157621 -0.89953875465288
6.97830584859865 -0.913512193194226
7.49894209332455 -0.931781733407958
8.05842187761481 -0.951709848891484
8.65964323360064 -0.972072770022835
9.30572040929698 -0.992294528486428
9.99999999999998 -1.01207716872104
10.7460782832132 -1.03121991175854
11.5478198468946 -1.04952135159781
12.4093776075172 -1.06671686407934
13.3352143216332 -1.0824310511528
14.3301257023696 -1.09613875229289
15.3992652605949 -1.10713599485035
16.5481709994318 -1.11452711935834
17.7827941003892 -1.11723684780455
19.1095297497044 -1.11405672337945
# 1 Rayleigh ellipticity mode(s)
# Layered model 53454: value=1.05618
# Mode 0
0.205352502645715 -0.95610778271591
0.220673406908459 -0.983769373573768
0.237137370566166 -1.01556971625359
0.254829674797935 -1.05239520488566
0.273841963426436 -1.09540237992922
0.294272717620928 -1.14613015174849
0.316227766016838 -1.20667296223936
0.339820832894256 -1.27995691869353
0.365174127254838 -1.37019711521229
0.392418975848454 -1.48368894802084
0.421696503428583 -1.63024908507882
0.453158363760082 -1.82600115292442
0.486967525165863 -2.09915155190409
0.523299114681495 -2.50297479257579
0.562341325190349 -3.14776474902096
0.604296390238133 -4.28722864746737
0.649381631576212 -6.57942189400307
0.697830584859866 -12.1249128182779
0.749894209332456 -33.5985031998937
0.805842187761482 129.146228681458
0.865964323360066 30.4111024440015
0.930572040929699 22.0778113487719
1 26.3914426084543
1.07460782832132 -56.4784899853911
1.15478198468946 -3.43641631606603
1.24093776075172 -0.988167167694379
1.33352143216332 -0.960649068165233
1.43301257023696 -0.98085558535076
1.53992652605949 -1.00754808448447
1.65481709994318 -1.03825655621549
1.77827941003892 -1.07255929822729
1.91095297497044 -1.10976028535651
2.05352502645714 -1.14871515588072
2.20673406908459 -1.18800856347001
